Characteristic,Population density in people per square kilometer
2018,95.96
2017,94.67
2016,93.39
2015,92.14
2014,90.9
2013,89.69
2012,88.47
2011,87.2
2010,85.86
2009,84.42
2008,82.9
2007,81.33
2006,79.75
2005,78.19
2004,76.67
2003,75.18
2002,73.68
2001,72.16
2000,70.6
